0.600000 0.154400 0.005600
0.612000 0.154400 0.017600
0.553600 0.155200 0.012800
0.581600 0.155200 0.015200
0.592000 0.155200 0.005600
0.620800 0.155200 0.018400
0.469600 0.156000 0.014400
0.475200 0.156000 0.009600
0.520000 0.156000 0.010400
0.574400 0.156000 0.015200
0.452000 0.156800 0.013600
0.462400 0.156800 0.011200
0.512800 0.156800 0.016000
0.532800 0.156800 0.011200
0.539200 0.156800 0.011200
0.544000 0.156800 0.008800
0.433600 0.157600 0.011200
0.501600 0.157600 0.016000
0.507200 0.157600 0.010400
0.402400 0.158400 0.008800
0.415200 0.158400 0.008800
0.492800 0.158400 0.012800
0.392800 0.159200 0.005600
0.382400 0.160000 0.013600
0.564000 0.177600 0.012000
0.556800 0.178400 0.005600
0.468000 0.179200 0.012000
0.497600 0.179200 0.013600
0.506400 0.179200 0.005600
0.539200 0.179200 0.008000
0.549600 0.179200 0.005600
0.572000 0.179200 0.005600
0.579200 0.179200 0.011200
0.428000 0.180000 0.012000
0.488800 0.180000 0.008000
0.515200 0.180000 0.014400
0.520800 0.180000 0.010400
0.448000 0.181600 0.010400
0.578400 0.206400 0.019200
0.572000 0.207200 0.013600
0.592000 0.207200 0.009600
0.604000 0.207200 0.008800
0.615200 0.207200 0.008800
0.644000 0.207200 0.022400
0.651200 0.207200 0.013600
0.655200 0.207200 0.008800
0.625600 0.208000 0.016800
0.636800 0.208000 0.016800
0.438400 0.210400 0.013600
0.399200 0.212000 0.016800
0.421600 0.212000 0.008800
0.409600 0.212800 0.007200
0.533600 0.212800 0.010400
0.538400 0.213600 0.012800
0.547200 0.213600 0.005600
0.554400 0.213600 0.011200
0.351200 0.216800 0.010400
0.363200 0.217600 0.003200
0.368800 0.217600 0.015200
0.606400 0.236800 0.011200
0.655200 0.236800 0.011200
0.527200 0.237600 0.016000
0.583200 0.237600 0.007200
0.592000 0.237600 0.011200
0.597600 0.237600 0.010400
0.628800 0.237600 0.011200
0.644800 0.237600 0.008800
0.553600 0.239200 0.016000
0.442400 0.240000 0.005600
0.451200 0.240000 0.005600
0.465600 0.240000 0.013600
0.499200 0.240000 0.005600
0.507200 0.240000 0.013600
0.546400 0.240000 0.012800
0.563200 0.240000 0.007200
0.573600 0.240000 0.005600
0.425600 0.240800 0.013600
0.489600 0.240800 0.013600
0.435200 0.241600 0.005600
0.458400 0.241600 0.003200
0.473600 0.241600 0.013600
0.352800 0.244800 0.008800
0.364800 0.244800 0.008800
0.381600 0.244800 0.011200
0.389600 0.244800 0.005600
0.396800 0.244800 0.011200
0.640000 0.251200 0.005600
0.648800 0.251200 0.008800
0.593600 0.252000 0.010400
0.626400 0.252000 0.008800
0.599200 0.252800 0.011200
0.608000 0.252800 0.005600
0.614400 0.252800 0.010400
0.659200 0.252800 0.008800
0.575200 0.253600 0.008800
0.586400 0.253600 0.011200
0.566400 0.255200 0.006400
0.396800 0.270400 0.013600
0.388000 0.272000 0.008800
0.353600 0.272800 0.011200
0.360800 0.272800 0.005600
0.368800 0.272800 0.005600
0.378400 0.272800 0.006400
0.640000 0.278400 0.007200
0.628000 0.280000 0.008800
0.650400 0.280000 0.016000
0.581600 0.281600 0.011200
0.613600 0.282400 0.011200
0.596000 0.283200 0.011200
0.593600 0.294400 0.026400
0.632000 0.294400 0.011200
0.560800 0.296000 0.012800
0.532000 0.296800 0.013600
0.540800 0.296800 0.016800
0.551200 0.297600 0.007200
0.354400 0.300800 0.011200
0.362400 0.300800 0.003200
0.368000 0.301600 0.008800
0.465600 0.321600 0.013600
0.450400 0.324000 0.005600
0.456800 0.324000 0.019200
0.429600 0.324800 0.011200
0.443200 0.324800 0.018400
0.550400 0.324800 0.013600
0.560000 0.324800 0.013600
0.568000 0.324800 0.005600
0.578400 0.324800 0.008800
0.399200 0.325600 0.020800
0.414400 0.325600 0.013600
0.422400 0.325600 0.016800
0.532800 0.325600 0.008800
0.539200 0.325600 0.016800
0.353600 0.327200 0.011200
0.366400 0.327200 0.003200
0.371200 0.327200 0.016000
0.360800 0.328000 0.019200
