0.947200 0.037600 0.011200
0.869600 0.038400 0.013600
0.887200 0.039200 0.011200
0.912000 0.039200 0.013600
0.928800 0.039200 0.011200
0.966400 0.039200 0.012800
0.767200 0.040000 0.019200
0.841600 0.040000 0.013600
0.740000 0.040800 0.020800
0.783200 0.040800 0.011200
0.855200 0.040800 0.008800
0.708000 0.041600 0.015200
0.756800 0.041600 0.008800
0.799200 0.041600 0.008800
0.821600 0.041600 0.011200
0.466400 0.042400 0.016800
0.592000 0.042400 0.013600
0.610400 0.042400 0.016800
0.662400 0.042400 0.012800
0.809600 0.042400 0.007200
0.566400 0.043200 0.015200
0.640000 0.043200 0.015200
0.684000 0.043200 0.013600
0.439200 0.044000 0.015200
0.524800 0.044000 0.012800
0.545600 0.044000 0.013600
0.415200 0.044800 0.015200
0.502400 0.044800 0.015200
0.371200 0.045600 0.013600
0.388000 0.045600 0.016800
0.396000 0.045600 0.012800
0.338400 0.046400 0.011200
0.353600 0.046400 0.011200
0.278400 0.049600 0.013600
0.318400 0.049600 0.013600
0.260800 0.050400 0.008800
0.300000 0.050400 0.013600
0.246400 0.051200 0.011200
0.946400 0.058400 0.010400
0.960800 0.058400 0.011200
0.911200 0.059200 0.009600
0.928000 0.060000 0.009600
0.891200 0.064800 0.012800
0.847200 0.066400 0.010400
0.861600 0.066400 0.016000
0.870400 0.066400 0.016000
0.829600 0.067200 0.012800
0.882400 0.067200 0.007200
0.809600 0.068000 0.011200
0.789600 0.068800 0.012800
0.579200 0.072000 0.019200
0.741600 0.072000 0.016000
0.077600 0.072800 0.021600
0.499200 0.072800 0.008800
0.511200 0.072800 0.019200
0.568000 0.072800 0.022400
0.600000 0.072800 0.012800
0.621600 0.072800 0.016000
0.645600 0.072800 0.013600
0.669600 0.072800 0.016800
0.768000 0.072800 0.016800
0.463200 0.073600 0.016800
0.484800 0.073600 0.013600
0.692000 0.073600 0.015200
0.716800 0.073600 0.016000
0.532800 0.074400 0.013600
0.547200 0.074400 0.016800
0.937600 0.076000 0.010400
0.957600 0.076800 0.011200
0.344000 0.078400 0.019200
0.386400 0.078400 0.011200
0.402400 0.078400 0.022400
0.412800 0.078400 0.019200
0.429600 0.078400 0.011200
0.917600 0.078400 0.012000
0.364000 0.079200 0.013600
0.442400 0.079200 0.008800
0.294400 0.080000 0.015200
0.317600 0.080000 0.011200
0.332800 0.080000 0.008800
0.199200 0.080800 0.013600
0.221600 0.080800 0.013600
0.270400 0.080800 0.016800
0.177600 0.081600 0.011200
0.244800 0.081600 0.015200
0.120000 0.082400 0.019200
0.160000 0.082400 0.013600
0.887200 0.082400 0.010400
0.134400 0.083200 0.019200
0.142400 0.083200 0.027200
0.078400 0.086400 0.009600
0.870400 0.086400 0.011200
0.852000 0.087200 0.011200
0.815200 0.088800 0.012000
0.833600 0.088800 0.011200
0.787200 0.089600 0.013600
0.910400 0.097600 0.010400
0.924800 0.098400 0.012800
0.944800 0.098400 0.010400
0.960800 0.098400 0.013600
0.080800 0.102400 0.011200
0.260000 0.116800 0.016800
0.280800 0.116800 0.013600
0.208000 0.117600 0.015200
0.235200 0.117600 0.013600
0.324000 0.118400 0.011200
0.080000 0.119200 0.011200
0.185600 0.119200 0.012800
0.338400 0.119200 0.011200
0.301600 0.120000 0.013600
0.344000 0.120000 0.011200
0.392800 0.120000 0.011200
0.816800 0.120000 0.011200
0.831200 0.120000 0.008800
0.167200 0.120800 0.012800
0.356800 0.120800 0.011200
0.852800 0.120800 0.008800
0.869600 0.120800 0.011200
0.885600 0.120800 0.019200
0.147200 0.121600 0.016000
0.374400 0.121600 0.013600
0.841600 0.121600 0.005600
0.718400 0.122400 0.013600
0.652800 0.123200 0.016800
0.680800 0.123200 0.012000
0.700800 0.123200 0.012800
0.614400 0.124000 0.011200
0.632800 0.124000 0.012800
0.572800 0.124800 0.013600
0.596000 0.125600 0.012800
0.540800 0.126400 0.012800
0.545600 0.126400 0.011200
0.559200 0.126400 0.008800
0.932800 0.130400 0.022400
0.080000 0.135200 0.011200
0.241600 0.144800 0.013600
0.265600 0.144800 0.013600
0.339200 0.144800 0.011200
0.220800 0.145600 0.013600
0.283200 0.145600 0.011200
0.300800 0.145600 0.011200
0.320800 0.145600 0.012800
0.148000 0.146400 0.013600
0.168800 0.146400 0.012000
0.191200 0.146400 0.015200
0.764000 0.146400 0.011200
0.796800 0.146400 0.012000
0.827200 0.146400 0.011200
0.840800 0.146400 0.008800
0.853600 0.146400 0.011200
0.781600 0.147200 0.010400
0.814400 0.147200 0.008800
0.878400 0.147200 0.014400
0.118400 0.148000 0.013600
0.724000 0.148000 0.011200
0.742400 0.148000 0.012000
0.868000 0.148000 0.008800
0.556800 0.148800 0.011200
0.595200 0.148800 0.011200
0.662400 0.148800 0.011200
0.575200 0.149600 0.011200
0.643200 0.149600 0.011200
0.683200 0.149600 0.012800
0.704000 0.149600 0.012000
0.615200 0.150400 0.011200
0.542400 0.151200 0.011200
0.083200 0.152000 0.024800
0.834400 0.164800 0.008800
0.888800 0.164800 0.013600
0.818400 0.165600 0.010400
0.847200 0.165600 0.011200
0.590400 0.166400 0.012800
0.797600 0.166400 0.011200
0.866400 0.166400 0.011200
0.339200 0.167200 0.011200
0.381600 0.167200 0.013600
0.359200 0.168000 0.012800
0.404000 0.168000 0.013600
0.620800 0.168000 0.013600
0.650400 0.168000 0.012800
0.674400 0.168000 0.011200
0.713600 0.168000 0.012800
0.739200 0.168000 0.011200
0.760800 0.168000 0.013600
0.783200 0.168000 0.010400
0.284800 0.168800 0.015200
0.309600 0.168800 0.012000
0.430400 0.168800 0.008800
0.546400 0.168800 0.011200
0.564800 0.168800 0.011200
0.693600 0.168800 0.010400
0.180000 0.169600 0.008800
0.215200 0.169600 0.012000
0.256800 0.169600 0.012800
0.330400 0.169600 0.013600
0.421600 0.169600 0.012800
0.441600 0.169600 0.008800
0.476800 0.169600 0.011200
0.636800 0.169600 0.008800
0.460000 0.170400 0.013600
0.149600 0.171200 0.012000
0.168000 0.171200 0.012800
0.192000 0.171200 0.013600
0.200000 0.171200 0.013600
0.235200 0.172000 0.012800
0.115200 0.177600 0.015200
0.867200 0.188800 0.012000
0.559200 0.189600 0.015200
0.588000 0.189600 0.013600
0.732000 0.189600 0.013600
0.762400 0.189600 0.012800
0.784000 0.189600 0.013600
0.811200 0.189600 0.013600
0.844800 0.189600 0.013600
0.338400 0.190400 0.013600
0.656800 0.190400 0.012800
0.680800 0.190400 0.013600
0.379200 0.191200 0.012800
0.704800 0.191200 0.013600
0.611200 0.192000 0.013600
0.634400 0.192000 0.013600
0.166400 0.192800 0.013600
0.223200 0.192800 0.011200
0.360000 0.192800 0.011200
0.147200 0.193600 0.012800
0.208000 0.193600 0.011200
0.270400 0.193600 0.016000
0.304800 0.193600 0.015200
0.400800 0.193600 0.010400
0.418400 0.193600 0.011200
0.439200 0.193600 0.012800
0.184000 0.194400 0.008800
0.236000 0.194400 0.013600
0.457600 0.194400 0.009600
0.244800 0.195200 0.011200
0.116800 0.197600 0.013600
0.249600 0.213600 0.008800
0.262400 0.213600 0.011200
0.373600 0.213600 0.011200
0.236000 0.214400 0.010400
0.324800 0.214400 0.013600
0.348000 0.214400 0.013600
0.425600 0.214400 0.012000
0.298400 0.215200 0.012800
0.400800 0.215200 0.016000
0.195200 0.216000 0.012800
0.211200 0.216000 0.011200
0.222400 0.216000 0.005600
0.396800 0.216000 0.016000
0.169600 0.216800 0.013600
0.285600 0.216800 0.008800
0.444000 0.216800 0.010400
0.150400 0.217600 0.011200
0.118400 0.218400 0.013600
0.459200 0.218400 0.008800
0.474400 0.219200 0.011200
0.485600 0.220000 0.008800
0.844000 0.220000 0.012800
0.865600 0.220000 0.012800
0.827200 0.220800 0.011200
0.724000 0.221600 0.012800
0.885600 0.221600 0.013600
0.764800 0.222400 0.011200
0.576800 0.223200 0.013600
0.597600 0.223200 0.013600
0.697600 0.223200 0.015200
0.745600 0.223200 0.012000
0.779200 0.223200 0.008800
0.617600 0.224000 0.011200
0.635200 0.224000 0.013600
0.673600 0.224000 0.012800
0.550400 0.224800 0.016800
0.563200 0.224800 0.008800
0.612000 0.224800 0.012800
0.653600 0.224800 0.011200
0.122400 0.233600 0.024000
0.365600 0.236800 0.013600
0.255200 0.237600 0.013600
0.280800 0.237600 0.015200
0.340000 0.237600 0.015200
0.222400 0.238400 0.013600
0.884800 0.238400 0.016800
0.154400 0.239200 0.013600
0.201600 0.239200 0.012000
0.236800 0.239200 0.008800
0.309600 0.239200 0.015200
0.386400 0.239200 0.010400
0.422400 0.240000 0.013600
0.444000 0.240000 0.011200
0.120800 0.240800 0.016800
0.179200 0.240800 0.013600
0.403200 0.240800 0.011200
0.747200 0.242400 0.011200
0.727200 0.244000 0.012800
0.759200 0.244000 0.013600
0.840000 0.244000 0.016800
0.782400 0.244800 0.013600
0.795200 0.244800 0.008800
0.665600 0.245600 0.016800
0.695200 0.245600 0.011200
0.812000 0.245600 0.013600
0.861600 0.245600 0.013600
0.709600 0.246400 0.008800
0.121600 0.248000 0.022400
0.630400 0.248000 0.013600
0.608800 0.250400 0.012800
0.551200 0.251200 0.016800
0.571200 0.251200 0.011200
0.588800 0.251200 0.011200
0.256000 0.260000 0.008800
0.265600 0.261600 0.014400
0.474400 0.261600 0.024800
0.220800 0.262400 0.015200
0.485600 0.262400 0.021600
0.179200 0.263200 0.011200
0.230400 0.263200 0.008800
0.242400 0.263200 0.011200
0.286400 0.263200 0.011200
0.303200 0.263200 0.011200
0.459200 0.263200 0.010400
0.152000 0.264000 0.011200
0.196800 0.264000 0.013600
0.321600 0.264000 0.012800
0.390400 0.264000 0.013600
0.412800 0.264000 0.012800
0.436000 0.264000 0.015200
0.168800 0.264800 0.015200
0.346400 0.264800 0.013600
0.368800 0.265600 0.012800
0.890400 0.267200 0.021600
0.120800 0.268000 0.013600
0.873600 0.268800 0.008800
0.861600 0.269600 0.009600
0.718400 0.270400 0.016000
0.743200 0.272000 0.013600
0.772000 0.272000 0.016800
0.848000 0.272000 0.011200
0.683200 0.272800 0.016000
0.831200 0.272800 0.012800
0.656000 0.273600 0.014400
0.792000 0.273600 0.008800
0.807200 0.273600 0.016800
0.627200 0.275200 0.015200
0.604800 0.276000 0.011200
0.588800 0.276800 0.011200
0.550400 0.277600 0.013600
0.565600 0.278400 0.013600
0.282400 0.286400 0.013600
0.258400 0.287200 0.013600
0.213600 0.288000 0.011200
0.235200 0.288000 0.013600
0.304000 0.288000 0.011200
0.323200 0.288000 0.011200
0.342400 0.288000 0.011200
0.360800 0.288000 0.009600
0.156000 0.288800 0.016800
0.170400 0.288800 0.008800
0.193600 0.288800 0.013600
0.120000 0.290400 0.013600
0.691200 0.298400 0.013600
0.663200 0.300000 0.016800
0.616000 0.300800 0.012800
0.638400 0.300800 0.013600
0.549600 0.303200 0.013600
0.592800 0.303200 0.013600
0.570400 0.304800 0.013600
0.385600 0.308000 0.015200
0.339200 0.308800 0.014400
0.364800 0.308800 0.012800
0.443200 0.308800 0.015200
0.398400 0.309600 0.005600
0.423200 0.309600 0.011200
0.466400 0.309600 0.011200
0.482400 0.309600 0.025600
0.119200 0.310400 0.015200
0.293600 0.310400 0.008800
0.408800 0.310400 0.008800
0.196800 0.311200 0.012800
0.231200 0.311200 0.011200
0.252800 0.311200 0.013600
0.276800 0.311200 0.011200
0.313600 0.311200 0.012800
0.215200 0.312000 0.008800
0.152800 0.312800 0.011200
0.172800 0.312800 0.013600
0.712000 0.327200 0.011200
0.752000 0.327200 0.016000
0.761600 0.327200 0.016800
0.732000 0.328000 0.012000
0.790400 0.328000 0.013600
0.883200 0.328000 0.015200
0.692800 0.328800 0.012800
0.861600 0.328800 0.013600
0.798400 0.329600 0.016800
0.844000 0.329600 0.011200
0.636000 0.330400 0.013600
0.654400 0.330400 0.011200
0.672000 0.330400 0.011200
0.811200 0.330400 0.010400
0.827200 0.330400 0.011200
0.616000 0.332000 0.008800
0.296800 0.332800 0.012800
0.320000 0.332800 0.012800
0.344800 0.332800 0.013600
0.366400 0.332800 0.012800
0.387200 0.332800 0.011200
0.579200 0.332800 0.011200
0.599200 0.332800 0.012800
0.192000 0.333600 0.012000
0.276000 0.333600 0.011200
0.452000 0.333600 0.012800
0.156000 0.334400 0.011200
0.214400 0.334400 0.013600
0.250400 0.334400 0.013600
0.407200 0.334400 0.012800
0.428000 0.334400 0.014400
0.548000 0.334400 0.011200
0.564000 0.334400 0.008800
0.173600 0.335200 0.011200
0.709600 0.351200 0.011200
0.790400 0.351200 0.013600
0.770400 0.352000 0.011200
0.697600 0.352800 0.011200
0.729600 0.352800 0.012800
0.751200 0.352800 0.012800
0.664000 0.353600 0.008000
0.676800 0.353600 0.013600
0.810400 0.353600 0.013600
0.551200 0.354400 0.011200
0.585600 0.354400 0.010400
0.625600 0.354400 0.012800
0.649600 0.354400 0.011200
0.269600 0.355200 0.012800
0.308800 0.355200 0.012000
0.568000 0.355200 0.011200
0.602400 0.355200 0.011200
0.839200 0.355200 0.013600
0.863200 0.355200 0.011200
0.880000 0.355200 0.011200
0.328800 0.356000 0.012800
0.246400 0.356800 0.013600
0.289600 0.356800 0.010400
0.348800 0.356800 0.010400
0.178400 0.357600 0.011200
0.197600 0.357600 0.012800
0.224000 0.357600 0.013600
0.208800 0.358400 0.008000
0.156800 0.359200 0.013600
0.117600 0.364000 0.017600
0.895200 0.372800 0.016000
0.602400 0.374400 0.012800
0.750400 0.374400 0.011200
0.796800 0.374400 0.011200
0.813600 0.374400 0.011200
0.845600 0.374400 0.009600
0.862400 0.374400 0.010400
0.878400 0.374400 0.010400
0.556000 0.375200 0.013600
0.580000 0.375200 0.012000
0.672000 0.375200 0.013600
0.712800 0.375200 0.008800
0.738400 0.375200 0.008800
0.769600 0.375200 0.011200
0.786400 0.375200 0.011200
0.829600 0.375200 0.008800
0.620800 0.376000 0.008800
0.680800 0.376000 0.013600
0.697600 0.376000 0.011200
0.724000 0.376000 0.011200
0.637600 0.376800 0.012800
0.655200 0.376800 0.011200
0.366400 0.378400 0.011200
0.400000 0.378400 0.012800
0.347200 0.379200 0.015200
0.383200 0.379200 0.011200
0.300800 0.380000 0.013600
0.323200 0.380000 0.011200
0.420800 0.380000 0.011200
0.450400 0.380000 0.012800
0.469600 0.380000 0.011200
0.247200 0.380800 0.012800
0.284800 0.380800 0.011200
0.435200 0.380800 0.008800
0.488000 0.380800 0.013600
0.204800 0.381600 0.013600
0.273600 0.381600 0.016800
0.316800 0.381600 0.013600
0.514400 0.381600 0.016800
0.180000 0.382400 0.011200
0.228000 0.382400 0.012800
0.502400 0.383200 0.005600
0.160000 0.384000 0.013600
0.524800 0.384800 0.007200
0.120800 0.385600 0.016800
0.876800 0.403200 0.013600
0.895200 0.403200 0.013600
0.787200 0.404800 0.012800
0.854400 0.404800 0.013600
0.200000 0.405600 0.012800
0.227200 0.405600 0.011200
0.360800 0.405600 0.013600
0.448800 0.405600 0.011200
0.468800 0.405600 0.012800
0.380800 0.406400 0.012800
0.402400 0.406400 0.012800
0.672000 0.406400 0.015200
0.704800 0.406400 0.013600
0.725600 0.406400 0.012800
0.809600 0.406400 0.013600
0.271200 0.407200 0.011200
0.284800 0.407200 0.008800
0.334400 0.407200 0.014400
0.425600 0.407200 0.014400
0.490400 0.407200 0.013600
0.627200 0.407200 0.010400
0.746400 0.407200 0.012800
0.767200 0.407200 0.011200
0.835200 0.407200 0.013600
0.157600 0.408000 0.012800
0.178400 0.408000 0.013600
0.247200 0.408000 0.013600
0.311200 0.408000 0.011200
0.512000 0.408000 0.016800
0.296000 0.408800 0.008800
0.554400 0.408800 0.005600
0.614400 0.408800 0.007200
0.567200 0.409600 0.011200
0.600800 0.409600 0.009600
0.648800 0.409600 0.013600
0.584000 0.410400 0.011200
0.125600 0.411200 0.019200
0.545600 0.411200 0.015200
0.957600 0.421600 0.005600
0.947200 0.422400 0.018400
0.926400 0.423200 0.008000
0.936000 0.423200 0.018400
0.793600 0.427200 0.013600
0.626400 0.428000 0.012000
0.767200 0.428000 0.016800
0.122400 0.429600 0.028800
0.604800 0.429600 0.013600
0.666400 0.429600 0.011200
0.813600 0.429600 0.011200
0.830400 0.429600 0.011200
0.848800 0.429600 0.011200
0.864000 0.429600 0.011200
0.912800 0.429600 0.024800
0.460800 0.430400 0.011200
0.649600 0.430400 0.011200
0.684000 0.430400 0.011200
0.702400 0.430400 0.013600
0.757600 0.430400 0.013600
0.897600 0.430400 0.011200
0.340800 0.431200 0.016800
0.368000 0.431200 0.013600
0.880800 0.431200 0.011200
0.204000 0.432000 0.011200
0.268800 0.432000 0.015200
0.385600 0.432000 0.008800
0.401600 0.432000 0.011200
0.419200 0.432000 0.011200
0.440000 0.432000 0.013600
0.724800 0.432000 0.011200
0.221600 0.432800 0.011200
0.242400 0.432800 0.014400
0.317600 0.432800 0.013600
0.740800 0.432800 0.013600
0.185600 0.433600 0.013600
0.160000 0.435200 0.016800
0.293600 0.436000 0.016800
