750.000000 193.000000 7.000000
765.000000 193.000000 22.000000
692.000000 194.000000 16.000000
727.000000 194.000000 19.000000
740.000000 194.000000 7.000000
776.000000 194.000000 23.000000
587.000000 195.000000 18.000000
594.000000 195.000000 12.000000
650.000000 195.000000 13.000000
718.000000 195.000000 19.000000
565.000000 196.000000 17.000000
578.000000 196.000000 14.000000
641.000000 196.000000 20.000000
666.000000 196.000000 14.000000
674.000000 196.000000 14.000000
680.000000 196.000000 11.000000
542.000000 197.000000 14.000000
627.000000 197.000000 20.000000
634.000000 197.000000 13.000000
503.000000 198.000000 11.000000
519.000000 198.000000 11.000000
616.000000 198.000000 16.000000
491.000000 199.000000 7.000000
478.000000 200.000000 17.000000
705.000000 222.000000 15.000000
696.000000 223.000000 7.000000
585.000000 224.000000 15.000000
622.000000 224.000000 17.000000
633.000000 224.000000 7.000000
674.000000 224.000000 10.000000
687.000000 224.000000 7.000000
715.000000 224.000000 7.000000
724.000000 224.000000 14.000000
535.000000 225.000000 15.000000
611.000000 225.000000 10.000000
644.000000 225.000000 18.000000
651.000000 225.000000 13.000000
560.000000 227.000000 13.000000
723.000000 258.000000 24.000000
715.000000 259.000000 17.000000
740.000000 259.000000 12.000000
755.000000 259.000000 11.000000
769.000000 259.000000 11.000000
805.000000 259.000000 28.000000
814.000000 259.000000 17.000000
819.000000 259.000000 11.000000
782.000000 260.000000 21.000000
796.000000 260.000000 21.000000
548.000000 263.000000 17.000000
499.000000 265.000000 21.000000
527.000000 265.000000 11.000000
512.000000 266.000000 9.000000
667.000000 266.000000 13.000000
673.000000 267.000000 16.000000
684.000000 267.000000 7.000000
693.000000 267.000000 14.000000
439.000000 271.000000 13.000000
454.000000 272.000000 4.000000
461.000000 272.000000 19.000000
758.000000 296.000000 14.000000
819.000000 296.000000 14.000000
659.000000 297.000000 20.000000
729.000000 297.000000 9.000000
740.000000 297.000000 14.000000
747.000000 297.000000 13.000000
786.000000 297.000000 14.000000
806.000000 297.000000 11.000000
692.000000 299.000000 20.000000
553.000000 300.000000 7.000000
564.000000 300.000000 7.000000
582.000000 300.000000 17.000000
624.000000 300.000000 7.000000
634.000000 300.000000 17.000000
683.000000 300.000000 16.000000
704.000000 300.000000 9.000000
717.000000 300.000000 7.000000
532.000000 301.000000 17.000000
612.000000 301.000000 17.000000
544.000000 302.000000 7.000000
573.000000 302.000000 4.000000
592.000000 302.000000 17.000000
441.000000 306.000000 11.000000
456.000000 306.000000 11.000000
477.000000 306.000000 14.000000
487.000000 306.000000 7.000000
496.000000 306.000000 14.000000
800.000000 314.000000 7.000000
811.000000 314.000000 11.000000
742.000000 315.000000 13.000000
783.000000 315.000000 11.000000
749.000000 316.000000 14.000000
760.000000 316.000000 7.000000
768.000000 316.000000 13.000000
824.000000 316.000000 11.000000
719.000000 317.000000 11.000000
733.000000 317.000000 14.000000
708.000000 319.000000 8.000000
496.000000 338.000000 17.000000
485.000000 340.000000 11.000000
442.000000 341.000000 14.000000
451.000000 341.000000 7.000000
461.000000 341.000000 7.000000
473.000000 341.000000 8.000000
800.000000 348.000000 9.000000
785.000000 350.000000 11.000000
813.000000 350.000000 20.000000
727.000000 352.000000 14.000000
767.000000 353.000000 14.000000
745.000000 354.000000 14.000000
742.000000 368.000000 33.000000
790.000000 368.000000 14.000000
701.000000 370.000000 16.000000
665.000000 371.000000 17.000000
676.000000 371.000000 21.000000
689.000000 372.000000 9.000000
443.000000 376.000000 14.000000
453.000000 376.000000 4.000000
460.000000 377.000000 11.000000
582.000000 402.000000 17.000000
563.000000 405.000000 7.000000
571.000000 405.000000 24.000000
537.000000 406.000000 14.000000
554.000000 406.000000 23.000000
688.000000 406.000000 17.000000
700.000000 406.000000 17.000000
710.000000 406.000000 7.000000
723.000000 406.000000 11.000000
499.000000 407.000000 26.000000
518.000000 407.000000 17.000000
528.000000 407.000000 21.000000
666.000000 407.000000 11.000000
674.000000 407.000000 21.000000
442.000000 409.000000 14.000000
458.000000 409.000000 4.000000
464.000000 409.000000 20.000000
451.000000 410.000000 24.000000
