1
8
8
1
1
1
8
8
8
8
8
8
8
8
8
8
8
8
8
8
8
8
8
8
8
8
8
8
8
8
8
8
8
8
8
8
8
8
1
1
1
1
8
8
8
8
8
8
8
8
8
8
0
8
8
8
8
8
8
8
8
8
8
8
8
8
8
1
1
8
8
8
8
8
1
8
8
8
8
8
8
8
8
8
8
8
8
8
8
8
0
8
8
8
8
8
1
1
1
1
0
9
9
9
9
9
0
9
9
9
9
9
15
15
9
9
15
15
15
9
9
15
14
14
14
14
14
14
14
14
14
14
14
2
0
9
9
9
9
9
9
9
9
9
9
13
13
13
13
13
13
13
13
9
13
13
13
13
13
13
13
13
13
13
13
13
0
13
13
13
13
13
13
13
9
9
9
9
13
13
13
13
13
13
13
9
9
9
13
13
13
9
9
9
9
9
9
9
13
9
9
9
9
9
9
9
13
13
13
13
13
13
13
13
9
13
13
9
13
13
13
9
9
9
9
9
9
9
9
9
9
9
9
9
9
9
9
9
9
9
9
9
9
9
9
9
9
9
9
9
9
9
9
9
9
9
9
12
12
12
12
12
12
12
12
12
12
12
12
12
12
12
12
12
12
9
9
9
9
9
9
12
9
9
9
9
9
9
9
9
9
9
12
12
12
12
12
12
12
12
12
12
12
9
12
12
12
12
12
9
9
9
9
9
9
9
9
9
9
9
9
9
9
9
9
9
9
9
9
12
9
12
12
12
12
12
12
12
12
12
12
12
12
12
12
12
12
9
9
9
9
9
9
9
9
9
9
9
9
12
12
12
12
12
12
12
9
9
9
9
9
9
9
9
9
9
9
9
9
9
9
9
9
9
9
11
11
11
11
11
11
11
11
11
11
11
11
11
11
11
11
9
9
9
9
9
11
11
9
9
9
9
9
9
9
9
11
11
9
11
11
11
11
11
11
11
11
11
11
11
11
11
9
9
11
11
11
11
11
9
9
9
9
9
9
9
9
9
9
11
11
11
11
11
11
11
11
11
11
11
11
11
11
11
11
11
11
11
11
11
11
9
9
9
9
9
9
9
9
9
9
9
9
9
9
9
9
9
9
9
9
9
9
9
10
10
10
10
9
9
9
9
9
9
9
10
10
10
10
9
9
9
9
9
10
10
10
10
9
9
9
9
9
9
10
10
10
10
10
10
9
10
3
3
3
3
10
10
10
9
10
10
10
10
10
10
10
9
10
10
10
10
10
9
9
10
9
9
9
9
9
9
10
9
9
9
10
9
9
9