0.672000 0.024800 0.011200
0.638400 0.025600 0.013600
0.579200 0.027200 0.020000
0.656800 0.027200 0.011200
0.593600 0.032000 0.028000
0.600000 0.034400 0.014400
0.204000 0.036800 0.011200
0.251200 0.036800 0.022400
0.220800 0.037600 0.011200
0.237600 0.037600 0.008800
0.165600 0.040000 0.019200
0.186400 0.040000 0.010400
0.708800 0.062400 0.016800
0.731200 0.062400 0.016800
0.749600 0.062400 0.013600
0.772000 0.062400 0.013600
0.720800 0.063200 0.022400
0.788000 0.064000 0.011200
0.676800 0.064800 0.011200
0.664800 0.066400 0.007200
0.691200 0.066400 0.008800
0.801600 0.066400 0.021600
0.475200 0.067200 0.018400
0.654400 0.067200 0.005600
0.375200 0.068000 0.016800
0.642400 0.068000 0.018400
0.349600 0.068800 0.015200
0.466400 0.068800 0.027200
0.618400 0.068800 0.016800
0.430400 0.069600 0.012800
0.448800 0.069600 0.012800
0.496800 0.069600 0.016800
0.520000 0.069600 0.016800
0.325600 0.070400 0.016000
0.409600 0.070400 0.016800
0.590400 0.070400 0.013600
0.572800 0.071200 0.013600
0.279200 0.072000 0.013600
0.296800 0.072000 0.016800
0.547200 0.072000 0.016800
0.248800 0.072800 0.011200
0.265600 0.072800 0.011200
0.304800 0.072800 0.013600
0.210400 0.073600 0.016000
0.231200 0.074400 0.011200
0.185600 0.075200 0.013600
0.152000 0.076000 0.013600
0.168000 0.076000 0.011200
0.850400 0.112000 0.015200
0.825600 0.112800 0.016800
0.870400 0.113600 0.016000
0.411200 0.115200 0.013600
0.427200 0.115200 0.011200
0.692800 0.115200 0.016000
0.712800 0.115200 0.013600
0.736000 0.115200 0.015200
0.278400 0.116000 0.018400
0.455200 0.116000 0.013600
0.671200 0.116000 0.013600
0.438400 0.116800 0.008800
0.502400 0.116800 0.013600
0.642400 0.116800 0.011200
0.652000 0.116800 0.016800
0.390400 0.117600 0.012800
0.480000 0.117600 0.013600
0.519200 0.117600 0.011200
0.538400 0.117600 0.013600
0.624000 0.117600 0.016800
0.794400 0.117600 0.011200
0.234400 0.118400 0.011200
0.251200 0.118400 0.011200
0.328000 0.118400 0.016800
0.372800 0.118400 0.011200
0.572000 0.118400 0.013600
0.594400 0.118400 0.013600
0.614400 0.118400 0.016800
0.300800 0.119200 0.013600
0.756800 0.119200 0.011200
0.350400 0.120000 0.013600
0.772800 0.120000 0.013600
0.147200 0.120800 0.011200
0.214400 0.120800 0.012000
0.220000 0.120800 0.011200
0.153600 0.121600 0.005600
0.163200 0.121600 0.008800
0.177600 0.121600 0.011200
0.197600 0.121600 0.013600
0.867200 0.137600 0.008000
0.838400 0.139200 0.011200
0.855200 0.139200 0.016800
0.878400 0.139200 0.016800
0.817600 0.140800 0.012800
0.580000 0.141600 0.013600
0.740000 0.141600 0.013600
0.791200 0.141600 0.013600
0.342400 0.142400 0.011200
0.409600 0.142400 0.016800
0.430400 0.142400 0.011200
0.447200 0.142400 0.012800
0.518400 0.142400 0.015200
0.680800 0.142400 0.012000
0.698400 0.142400 0.011200
0.316800 0.143200 0.018400
0.333600 0.143200 0.013600
0.358400 0.143200 0.011200
0.398400 0.143200 0.011200
0.513600 0.143200 0.014400
0.560800 0.143200 0.011200
0.643200 0.143200 0.013600
0.664800 0.143200 0.012800
0.712000 0.143200 0.016800
0.765600 0.143200 0.014400
0.241600 0.144000 0.013600
0.249600 0.144000 0.013600
0.306400 0.144000 0.019200
0.378400 0.144000 0.013600
0.540800 0.144000 0.013600
0.621600 0.144000 0.011200
0.658400 0.144000 0.011200
0.604000 0.144800 0.011200
0.268800 0.145600 0.013600
0.467200 0.145600 0.013600
0.490400 0.145600 0.014400
0.190400 0.146400 0.011200
0.216000 0.146400 0.015200
0.163200 0.147200 0.016000
0.289600 0.147200 0.011200
0.876000 0.162400 0.019200
0.827200 0.163200 0.011200
0.808800 0.164000 0.012000
0.843200 0.164000 0.012800
0.861600 0.164000 0.008000
0.769600 0.165600 0.012800
0.788800 0.165600 0.012000
0.207200 0.168000 0.013600
0.185600 0.168800 0.013600
0.217600 0.168800 0.013600
0.251200 0.168800 0.011200
0.312000 0.168800 0.012800
0.348800 0.168800 0.011200
0.361600 0.168800 0.013600
0.524000 0.168800 0.012000
0.666400 0.168800 0.013600
0.698400 0.168800 0.013600
0.720800 0.168800 0.011200
0.742400 0.168800 0.013600
0.156800 0.169600 0.012800
0.234400 0.169600 0.013600
0.268000 0.169600 0.012800
0.332000 0.169600 0.012800
0.405600 0.169600 0.014400
0.429600 0.169600 0.013600
0.453600 0.169600 0.011200
0.496000 0.169600 0.012000
0.509600 0.169600 0.007200
0.551200 0.169600 0.016000
0.684000 0.169600 0.007200
0.382400 0.170400 0.012800
0.645600 0.170400 0.011200
0.472800 0.171200 0.012000
0.571200 0.171200 0.013600
0.591200 0.171200 0.013600
0.173600 0.172000 0.008800
0.616800 0.172000 0.016800
0.287200 0.172800 0.013600
0.876000 0.188800 0.015200
0.737600 0.189600 0.007200
0.756800 0.189600 0.013600
0.784000 0.189600 0.013600
0.809600 0.189600 0.011200
0.827200 0.189600 0.011200
0.720800 0.190400 0.012800
0.847200 0.190400 0.015200
0.660800 0.191200 0.011200
0.211200 0.192000 0.012800
0.680000 0.192000 0.011200
0.700000 0.192000 0.012000
0.635200 0.192800 0.013600
0.421600 0.193600 0.015200
0.505600 0.193600 0.015200
0.530400 0.193600 0.015200
0.560800 0.193600 0.012800
0.586400 0.193600 0.011200
0.188000 0.194400 0.015200
0.447200 0.194400 0.013600
0.472800 0.194400 0.013600
0.244800 0.195200 0.013600
0.372000 0.195200 0.013600
0.607200 0.195200 0.012000
0.159200 0.196000 0.015200
0.272000 0.196000 0.013600
0.297600 0.196000 0.012800
0.392800 0.196000 0.012800
0.344800 0.196800 0.015200
0.321600 0.197600 0.013600
0.750400 0.212800 0.015200
0.637600 0.213600 0.012800
0.692000 0.213600 0.014400
0.726400 0.213600 0.015200
0.882400 0.213600 0.016800
0.616000 0.214400 0.012800
0.660000 0.214400 0.011200
0.820000 0.214400 0.013600
0.842400 0.214400 0.011200
0.860800 0.214400 0.012800
0.868800 0.214400 0.013600
0.594400 0.215200 0.012800
0.779200 0.215200 0.013600
0.477600 0.216000 0.012800
0.801600 0.216000 0.012800
0.223200 0.216800 0.015200
0.568000 0.216800 0.011200
0.249600 0.217600 0.015200
0.283200 0.217600 0.013600
0.519200 0.217600 0.013600
0.548000 0.217600 0.012800
0.399200 0.218400 0.014400
0.453600 0.218400 0.013600
0.498400 0.218400 0.012800
0.531200 0.218400 0.011200
0.168800 0.219200 0.016000
0.197600 0.219200 0.014400
0.301600 0.219200 0.010400
0.392800 0.219200 0.013600
0.427200 0.219200 0.015200
0.318400 0.220000 0.009600
0.336000 0.220000 0.011200
0.353600 0.220000 0.011200
0.372800 0.220800 0.011200
0.766400 0.236000 0.013600
0.832000 0.236000 0.013600
0.740800 0.236800 0.012800
0.857600 0.236800 0.012000
0.674400 0.237600 0.013600
0.720800 0.237600 0.011200
0.808800 0.237600 0.012000
0.879200 0.237600 0.012800
0.644800 0.238400 0.013600
0.700800 0.238400 0.012800
0.788800 0.238400 0.011200
0.602400 0.239200 0.012000
0.624000 0.239200 0.012800
0.550400 0.240000 0.016800
0.581600 0.240000 0.012800
0.409600 0.240800 0.012800
0.496000 0.240800 0.010400
0.518400 0.240800 0.013600
0.429600 0.241600 0.010400
0.448000 0.241600 0.011200
0.380800 0.242400 0.015200
0.474400 0.242400 0.013600
0.248800 0.243200 0.011200
0.302400 0.243200 0.014400
0.328800 0.243200 0.012800
0.355200 0.244000 0.013600
0.231200 0.244800 0.010400
0.188800 0.245600 0.011200
0.205600 0.245600 0.013600
0.269600 0.245600 0.011200
0.280800 0.245600 0.013600
0.166400 0.247200 0.013600
0.180000 0.247200 0.011200
0.877600 0.257600 0.022400
0.867200 0.258400 0.015200
0.748800 0.259200 0.013600
0.725600 0.260000 0.013600
0.779200 0.260800 0.016000
0.803200 0.260800 0.012000
0.692000 0.261600 0.013600
0.824000 0.261600 0.014400
0.848000 0.261600 0.013600
0.598400 0.262400 0.013600
0.674400 0.262400 0.011200
0.408000 0.263200 0.011200
0.500800 0.263200 0.011200
0.519200 0.263200 0.013600
0.573600 0.263200 0.015200
0.620800 0.263200 0.013600
0.474400 0.264000 0.016000
0.642400 0.264000 0.013600
0.232000 0.264800 0.013600
0.260800 0.264800 0.015200
0.288800 0.264800 0.013600
0.385600 0.264800 0.013600
0.429600 0.264800 0.012800
0.661600 0.264800 0.019200
0.180800 0.265600 0.012800
0.422400 0.265600 0.015200
0.448000 0.265600 0.012800
0.546400 0.265600 0.014400
0.160000 0.266400 0.011200
0.205600 0.266400 0.013600
0.319200 0.266400 0.012000
0.340800 0.266400 0.013600
0.364000 0.267200 0.012800
0.278400 0.287200 0.013600
0.320000 0.288800 0.011200
0.167200 0.289600 0.013600
0.189600 0.289600 0.012800
0.210400 0.289600 0.012000
0.257600 0.289600 0.011200
0.299200 0.289600 0.011200
0.234400 0.290400 0.013600
0.312000 0.290400 0.005600
0.880800 0.305600 0.018400
0.715200 0.307200 0.013600
0.825600 0.307200 0.013600
0.316000 0.308800 0.013600
0.334400 0.308800 0.011200
0.588800 0.308800 0.013600
0.624800 0.308800 0.013600
0.644000 0.308800 0.013600
0.694400 0.308800 0.013600
0.798400 0.308800 0.016800
0.304800 0.309600 0.008800
0.356000 0.309600 0.016800
0.517600 0.309600 0.013600
0.600800 0.309600 0.016800
0.666400 0.309600 0.013600
0.734400 0.309600 0.013600
0.767200 0.309600 0.016800
0.844000 0.309600 0.012800
0.860000 0.309600 0.008000
0.366400 0.310400 0.008800
0.564800 0.310400 0.014400
0.753600 0.310400 0.011200
0.282400 0.311200 0.015200
0.389600 0.311200 0.016000
0.416000 0.311200 0.016000
0.448000 0.311200 0.016000
0.539200 0.311200 0.015200
0.680800 0.311200 0.008800
0.472000 0.312000 0.013600
0.494400 0.312000 0.015200
0.210400 0.313600 0.012800
0.231200 0.314400 0.011200
0.255200 0.314400 0.014400
0.172800 0.315200 0.008800
0.188000 0.315200 0.011200
0.159200 0.316000 0.011200
0.123200 0.318400 0.019200
0.116800 0.319200 0.020800
0.872800 0.332000 0.016800
0.787200 0.332800 0.011200
0.817600 0.332800 0.013600
0.842400 0.332800 0.016000
0.311200 0.333600 0.011200
0.330400 0.333600 0.013600
0.455200 0.333600 0.013600
0.486400 0.333600 0.011200
0.581600 0.333600 0.016800
0.679200 0.333600 0.012800
0.747200 0.333600 0.012000
0.767200 0.333600 0.012800
0.300000 0.334400 0.011200
0.382400 0.334400 0.013600
0.407200 0.334400 0.011200
0.427200 0.334400 0.013600
0.532000 0.334400 0.011200
0.552800 0.334400 0.012800
0.627200 0.334400 0.016000
0.704800 0.334400 0.015200
0.727200 0.334400 0.012800
0.249600 0.335200 0.013600
0.360800 0.335200 0.012800
0.509600 0.335200 0.013600
0.603200 0.335200 0.013600
0.654400 0.335200 0.015200
0.801600 0.335200 0.008800
0.224000 0.336800 0.013600
0.271200 0.336800 0.011200
0.287200 0.336800 0.011200
0.172800 0.338400 0.008800
0.194400 0.338400 0.013600
0.160800 0.339200 0.016800
0.349600 0.357600 0.016800
0.479200 0.357600 0.012800
0.316800 0.358400 0.014400
0.449600 0.358400 0.015200
0.496000 0.358400 0.012800
0.157600 0.359200 0.013600
0.290400 0.359200 0.011200
0.336000 0.359200 0.008800
0.378400 0.359200 0.013600
0.423200 0.359200 0.013600
0.248000 0.360000 0.012800
0.270400 0.360000 0.011200
0.400800 0.360000 0.013600
0.200000 0.360800 0.015200
0.254400 0.360800 0.012800
0.172800 0.361600 0.013600
0.218400 0.361600 0.008800
0.232000 0.361600 0.011200
0.864000 0.372800 0.026400
0.702400 0.377600 0.013600
0.575200 0.378400 0.016800
0.533600 0.379200 0.013600
0.555200 0.379200 0.012800
0.585600 0.379200 0.016800
0.681600 0.379200 0.013600
0.516800 0.380000 0.012800
0.611200 0.380000 0.012800
0.631200 0.380000 0.013600
0.654400 0.380000 0.015200
0.721600 0.380000 0.013600
0.741600 0.380800 0.011200
0.302400 0.381600 0.011200
0.490400 0.381600 0.015200
0.756000 0.381600 0.013600
0.812000 0.381600 0.012800
0.860000 0.381600 0.013600
0.447200 0.382400 0.015200
0.468800 0.382400 0.013600
0.773600 0.382400 0.011200
0.795200 0.382400 0.016800
0.314400 0.383200 0.013600
0.785600 0.383200 0.018400
0.831200 0.383200 0.015200
0.876000 0.383200 0.032800
0.282400 0.384000 0.015200
0.377600 0.384000 0.011200
0.391200 0.384000 0.013600
0.162400 0.384800 0.015200
0.255200 0.384800 0.011200
0.334400 0.384800 0.012800
0.416800 0.384800 0.015200
0.156000 0.385600 0.012800
0.186400 0.385600 0.013600
0.240800 0.385600 0.008800
0.354400 0.385600 0.013600
0.173600 0.386400 0.007200
0.208800 0.386400 0.012800
0.224800 0.386400 0.009600
0.873600 0.401600 0.027200
0.469600 0.405600 0.011200
0.836800 0.405600 0.014400
0.516800 0.406400 0.012000
0.538400 0.406400 0.013600
0.562400 0.406400 0.015200
0.666400 0.406400 0.015200
0.735200 0.406400 0.012800
0.756800 0.406400 0.012800
0.811200 0.406400 0.016800
0.325600 0.407200 0.013600
0.455200 0.407200 0.008000
0.691200 0.407200 0.014400
0.715200 0.407200 0.013600
0.780800 0.407200 0.012800
0.796800 0.407200 0.008800
0.296800 0.408000 0.016800
0.355200 0.408000 0.011200
0.396800 0.408000 0.011200
0.417600 0.408000 0.012800
0.439200 0.408000 0.012000
0.493600 0.408000 0.013600
0.585600 0.408000 0.013600
0.607200 0.408000 0.016800
0.637600 0.408000 0.015200
0.240800 0.408800 0.014400
0.264800 0.408800 0.012000
0.376000 0.408800 0.012800
0.217600 0.409600 0.013600
0.280800 0.409600 0.010400
0.172000 0.411200 0.011200
0.186400 0.412000 0.013600
0.537600 0.430400 0.011200
0.471200 0.433600 0.018400
0.158400 0.434400 0.024800
0.343200 0.434400 0.008800
0.357600 0.434400 0.019200
0.390400 0.434400 0.016000
0.441600 0.434400 0.016000
0.501600 0.434400 0.019200
0.514400 0.434400 0.011200
0.172000 0.435200 0.013600
0.199200 0.435200 0.016800
0.297600 0.435200 0.013600
0.320800 0.435200 0.016800
0.416000 0.435200 0.015200
0.235200 0.436000 0.019200
0.249600 0.436000 0.007200
0.224800 0.436800 0.019200
0.277600 0.436800 0.013600
0.261600 0.437600 0.011200
