0.679200 0.033600 0.008800
0.692000 0.033600 0.008800
0.661600 0.038400 0.013600
0.875200 0.040000 0.029600
0.186400 0.040800 0.011200
0.204000 0.040800 0.013600
0.148800 0.041600 0.028800
0.225600 0.041600 0.011200
0.240800 0.041600 0.026400
0.168000 0.042400 0.011200
0.616000 0.049600 0.030400
0.087200 0.070400 0.013600
0.063200 0.072000 0.012000
0.045600 0.072800 0.008800
0.036800 0.073600 0.004800
0.030400 0.074400 0.011200
0.138400 0.075200 0.016800
0.180800 0.076800 0.012800
0.228000 0.077600 0.013600
0.358400 0.077600 0.010400
0.163200 0.078400 0.013600
0.203200 0.078400 0.015200
0.320800 0.078400 0.013600
0.275200 0.079200 0.013600
0.338400 0.079200 0.012800
0.125600 0.080000 0.019200
0.250400 0.080000 0.011200
0.298400 0.080000 0.015200
0.073600 0.092000 0.014400
0.048000 0.092800 0.012800
0.187200 0.100000 0.011200
0.210400 0.100800 0.013600
0.233600 0.100800 0.012800
0.252800 0.100800 0.011200
0.348000 0.100800 0.011200
0.164800 0.101600 0.013600
0.272800 0.101600 0.011200
0.368000 0.101600 0.013600
0.404800 0.101600 0.008800
0.388800 0.102400 0.011200
0.540800 0.102400 0.012800
0.326400 0.103200 0.012800
0.419200 0.103200 0.011200
0.434400 0.103200 0.008800
0.446400 0.103200 0.013600
0.477600 0.103200 0.013600
0.503200 0.103200 0.015200
0.524000 0.103200 0.011200
0.561600 0.103200 0.011200
0.602400 0.103200 0.016800
0.291200 0.104000 0.011200
0.462400 0.104000 0.008800
0.580000 0.104000 0.013600
0.128800 0.104800 0.019200
0.307200 0.104800 0.010400
0.627200 0.105600 0.012800
0.055200 0.124000 0.021600
0.060800 0.124800 0.022400
0.209600 0.124800 0.011200
0.231200 0.124800 0.012000
0.251200 0.124800 0.013600
0.276800 0.124800 0.013600
0.175200 0.125600 0.008800
0.186400 0.125600 0.011200
0.300800 0.125600 0.012800
0.130400 0.126400 0.016800
0.320800 0.126400 0.012800
0.343200 0.126400 0.010400
0.161600 0.127200 0.013600
0.360800 0.127200 0.014400
0.385600 0.128000 0.011200
0.405600 0.128800 0.013600
0.448800 0.128800 0.013600
0.555200 0.128800 0.010400
0.572800 0.128800 0.011200
0.120800 0.129600 0.019200
0.429600 0.129600 0.013600
0.472000 0.129600 0.014400
0.539200 0.129600 0.011200
0.592000 0.129600 0.013600
0.616800 0.129600 0.012000
0.499200 0.130400 0.013600
0.520000 0.132800 0.011200
0.187200 0.148000 0.012800
0.209600 0.148800 0.014400
0.379200 0.148800 0.007200
0.232000 0.149600 0.012800
0.165600 0.150400 0.013600
0.541600 0.150400 0.011200
0.323200 0.151200 0.018400
0.334400 0.151200 0.016800
0.528800 0.151200 0.008000
0.576800 0.151200 0.008800
0.251200 0.152000 0.013600
0.278400 0.152000 0.012800
0.309600 0.152000 0.008800
0.391200 0.152000 0.016000
0.516800 0.152000 0.016000
0.562400 0.152000 0.011200
0.298400 0.152800 0.016000
0.345600 0.152800 0.005600
0.358400 0.152800 0.016000
0.365600 0.152800 0.016000
0.586400 0.152800 0.007200
0.597600 0.152800 0.011200
0.883200 0.152800 0.019200
0.482400 0.153600 0.011200
0.637600 0.153600 0.013600
0.708000 0.153600 0.016000
0.818400 0.153600 0.013600
0.768000 0.154400 0.016800
0.836000 0.154400 0.011200
0.856800 0.154400 0.016800
0.868000 0.154400 0.008800
0.419200 0.155200 0.015200
0.429600 0.155200 0.008800
0.465600 0.155200 0.011200
0.616000 0.155200 0.012800
0.656000 0.155200 0.011200
0.675200 0.155200 0.016800
0.734400 0.155200 0.016800
0.129600 0.156000 0.021600
0.444800 0.156000 0.012000
0.793600 0.156000 0.013600
0.492000 0.175200 0.013600
0.216800 0.176000 0.013600
0.468000 0.176000 0.013600
0.188000 0.176800 0.016000
0.289600 0.176800 0.011200
0.308800 0.176800 0.011200
0.336000 0.176800 0.014400
0.442400 0.176800 0.013600
0.508000 0.176800 0.005600
0.198400 0.177600 0.016800
0.241600 0.177600 0.011200
0.259200 0.177600 0.011200
0.557600 0.177600 0.016000
0.888000 0.177600 0.011200
0.275200 0.178400 0.008800
0.356800 0.178400 0.011200
0.383200 0.178400 0.008800
0.529600 0.178400 0.016800
0.579200 0.178400 0.012000
0.735200 0.178400 0.013600
0.756000 0.178400 0.013600
0.400800 0.179200 0.012800
0.419200 0.179200 0.012000
0.519200 0.179200 0.016000
0.773600 0.179200 0.011200
0.835200 0.179200 0.016800
0.168800 0.180000 0.013600
0.603200 0.180000 0.013600
0.668800 0.180000 0.015200
0.788000 0.180000 0.011200
0.882400 0.180000 0.019200
0.620800 0.180800 0.013600
0.692000 0.180800 0.013600
0.712000 0.180800 0.013600
0.804000 0.180800 0.013600
0.852800 0.180800 0.011200
0.872000 0.180800 0.013600
0.813600 0.181600 0.005600
0.822400 0.181600 0.013600
0.233600 0.197600 0.011200
0.213600 0.198400 0.011200
0.252000 0.198400 0.011200
0.272000 0.198400 0.012800
0.306400 0.199200 0.013600
0.328000 0.200000 0.011200
0.351200 0.200000 0.014400
0.380800 0.200000 0.016000
0.408800 0.200000 0.012000
0.164000 0.200800 0.012000
0.184800 0.200800 0.013600
0.432000 0.200800 0.012800
0.439200 0.200800 0.016800
0.448800 0.200800 0.011200
0.467200 0.200800 0.011200
0.513600 0.200800 0.013600
0.505600 0.201600 0.013600
0.488800 0.202400 0.012800
0.134400 0.222400 0.012000
0.335200 0.222400 0.011200
0.356000 0.222400 0.013600
0.584000 0.222400 0.013600
0.306400 0.223200 0.008800
0.316000 0.223200 0.016800
0.377600 0.223200 0.013600
0.386400 0.223200 0.016000
0.409600 0.223200 0.013600
0.739200 0.223200 0.013600
0.805600 0.223200 0.013600
0.226400 0.224000 0.012800
0.513600 0.224000 0.014400
0.596000 0.224000 0.008800
0.687200 0.224000 0.016000
0.717600 0.224000 0.013600
0.784800 0.224000 0.013600
0.193600 0.224800 0.008800
0.207200 0.224800 0.016800
0.429600 0.224800 0.011200
0.444800 0.224800 0.011200
0.606400 0.224800 0.013600
0.662400 0.224800 0.013600
0.762400 0.224800 0.012800
0.819200 0.224800 0.013600
0.161600 0.225600 0.013600
0.180000 0.225600 0.011200
0.292000 0.225600 0.010400
0.464000 0.225600 0.012800
0.505600 0.225600 0.013600
0.860000 0.225600 0.008800
0.877600 0.225600 0.016000
0.276800 0.226400 0.011200
0.483200 0.226400 0.016000
0.628000 0.226400 0.013600
0.642400 0.226400 0.011200
0.844800 0.226400 0.013600
0.257600 0.227200 0.015200
0.607200 0.245600 0.012800
0.708800 0.245600 0.012800
0.579200 0.246400 0.016800
0.590400 0.246400 0.008800
0.689600 0.246400 0.011200
0.630400 0.248000 0.008000
0.652800 0.248000 0.015200
0.676000 0.248000 0.008800
0.888000 0.248000 0.013600
0.736800 0.248800 0.015200
0.763200 0.248800 0.013600
0.797600 0.248800 0.016000
0.849600 0.249600 0.012800
0.869600 0.249600 0.011200
0.827200 0.250400 0.014400
0.132000 0.252800 0.021600
0.184000 0.252800 0.012800
0.233600 0.252800 0.016800
0.260800 0.252800 0.016800
0.164800 0.253600 0.016800
0.205600 0.253600 0.014400
0.396800 0.253600 0.013600
0.289600 0.254400 0.015200
0.312800 0.254400 0.011200
0.374400 0.255200 0.015200
0.120000 0.256000 0.022400
0.327200 0.256000 0.016800
0.336000 0.256000 0.016800
0.352000 0.256000 0.012800
0.612800 0.268800 0.014400
0.588000 0.269600 0.014400
0.640800 0.271200 0.016000
0.700800 0.271200 0.015200
0.676000 0.272000 0.016800
0.732000 0.272800 0.015200
0.757600 0.272800 0.013600
0.785600 0.274400 0.015200
0.807200 0.276000 0.016800
0.864800 0.276000 0.013600
0.885600 0.276000 0.016800
0.819200 0.276800 0.013600
0.840000 0.276800 0.015200
0.129600 0.283200 0.018400
0.229600 0.283200 0.016800
0.208000 0.284000 0.014400
0.120800 0.284800 0.018400
0.254400 0.284800 0.013600
0.190400 0.285600 0.011200
0.276800 0.286400 0.013600
0.300000 0.287200 0.016800
0.324000 0.287200 0.013600
0.161600 0.288000 0.013600
0.178400 0.288000 0.011200
0.352800 0.288000 0.013600
0.375200 0.288000 0.012800
0.398400 0.288000 0.013600
0.418400 0.288000 0.011200
0.432000 0.288000 0.019200
0.440800 0.288000 0.016800
0.458400 0.289600 0.011200
0.478400 0.289600 0.013600
0.500000 0.291200 0.012800
0.516000 0.291200 0.012800
0.522400 0.291200 0.012800
0.586400 0.295200 0.013600
0.621600 0.295200 0.011200
0.602400 0.296000 0.012800
0.321600 0.312800 0.014400
0.360800 0.312800 0.013600
0.261600 0.313600 0.015200
0.344000 0.313600 0.011200
0.197600 0.314400 0.013600
0.238400 0.314400 0.013600
0.284000 0.314400 0.011200
0.300800 0.314400 0.012800
0.383200 0.314400 0.013600
0.402400 0.314400 0.015200
0.428000 0.314400 0.013600
0.448000 0.314400 0.012800
0.216800 0.315200 0.013600
0.181600 0.316000 0.013600
0.495200 0.316000 0.011200
0.469600 0.316800 0.013600
0.510400 0.316800 0.011200
0.161600 0.317600 0.016800
0.545600 0.317600 0.010400
0.529600 0.318400 0.013600
0.690400 0.319200 0.011200
0.715200 0.319200 0.013600
0.668000 0.320000 0.013600
0.732800 0.320000 0.011200
0.753600 0.320000 0.012800
0.841600 0.320000 0.012800
0.578400 0.320800 0.013600
0.585600 0.320800 0.013600
0.645600 0.320800 0.011200
0.779200 0.320800 0.016000
0.861600 0.320800 0.012800
0.630400 0.321600 0.011200
0.883200 0.321600 0.013600
0.799200 0.322400 0.013600
0.820800 0.322400 0.012800
0.605600 0.323200 0.014400
0.388800 0.340800 0.011200
0.416800 0.340800 0.011200
0.435200 0.340800 0.011200
0.371200 0.341600 0.013600
0.453600 0.341600 0.012800
0.689600 0.341600 0.016000
0.401600 0.342400 0.007200
0.636000 0.342400 0.012800
0.737600 0.342400 0.011200
0.344800 0.343200 0.016800
0.475200 0.343200 0.016800
0.592800 0.343200 0.012800
0.613600 0.343200 0.011200
0.659200 0.343200 0.012000
0.716000 0.343200 0.012800
0.174400 0.344000 0.008800
0.184000 0.344000 0.008800
0.196000 0.344000 0.013600
0.216800 0.344000 0.013600
0.758400 0.344000 0.013600
0.783200 0.344000 0.012000
0.872000 0.344000 0.013600
0.132000 0.344800 0.018400
0.228800 0.344800 0.016800
0.237600 0.344800 0.013600
0.254400 0.344800 0.012800
0.274400 0.344800 0.013600
0.890400 0.344800 0.013600
0.120000 0.345600 0.022400
0.160000 0.345600 0.012800
0.310400 0.345600 0.016800
0.826400 0.345600 0.011200
0.846400 0.345600 0.012800
0.292800 0.346400 0.011200
0.806400 0.346400 0.012000
0.712000 0.365600 0.012800
0.736000 0.365600 0.012800
0.592800 0.366400 0.013600
0.638400 0.366400 0.013600
0.662400 0.366400 0.013600
0.668800 0.366400 0.015200
0.757600 0.366400 0.012000
0.618400 0.367200 0.013600
0.778400 0.367200 0.012000
0.798400 0.367200 0.013600
0.688000 0.368000 0.013600
0.825600 0.368000 0.011200
0.460800 0.368800 0.015200
0.164800 0.369600 0.013600
0.178400 0.369600 0.005600
0.233600 0.369600 0.012800
0.359200 0.369600 0.012000
0.378400 0.369600 0.011200
0.396000 0.369600 0.011200
0.417600 0.369600 0.013600
0.440000 0.369600 0.011200
0.252000 0.370400 0.012800
0.341600 0.370400 0.011200
0.846400 0.370400 0.016000
0.876000 0.370400 0.016800
0.190400 0.371200 0.011200
0.316800 0.371200 0.013600
0.209600 0.372000 0.013600
0.274400 0.372000 0.012000
0.294400 0.372000 0.013600
0.716000 0.388800 0.013600
0.732000 0.389600 0.011200
0.680000 0.390400 0.016000
0.161600 0.391200 0.012800
0.629600 0.391200 0.013600
0.180800 0.392000 0.011200
0.585600 0.392000 0.013600
0.606400 0.392000 0.013600
0.652800 0.392000 0.014400
0.232800 0.392800 0.013600
0.452000 0.393600 0.013600
0.770400 0.393600 0.016800
0.367200 0.394400 0.011200
0.436800 0.394400 0.008800
0.783200 0.394400 0.019200
0.202400 0.395200 0.013600
0.413600 0.395200 0.015200
0.340800 0.396000 0.013600
0.254400 0.396800 0.014400
0.284000 0.396800 0.012800
0.303200 0.396800 0.011200
0.320800 0.396800 0.012000
0.387200 0.396800 0.015200
0.179200 0.417600 0.013600
0.160000 0.418400 0.012800
0.208000 0.418400 0.011200
0.442400 0.418400 0.012800
0.252000 0.419200 0.013600
0.225600 0.420000 0.012800
0.421600 0.420000 0.012800
0.280000 0.420800 0.012800
0.392000 0.420800 0.013600
0.304800 0.422400 0.013600
0.350400 0.422400 0.012800
0.327200 0.423200 0.012800
0.370400 0.423200 0.011200
0.168000 0.441600 0.019200
0.523200 0.441600 0.016800
0.178400 0.442400 0.013600
0.196800 0.442400 0.012800
0.476000 0.442400 0.016000
0.553600 0.442400 0.018400
0.360800 0.443200 0.011200
0.454400 0.443200 0.012800
0.501600 0.443200 0.013600
0.220800 0.444000 0.014400
0.244000 0.444000 0.013600
0.254400 0.444000 0.005600
0.354400 0.444000 0.005600
0.374400 0.444000 0.010400
0.393600 0.444000 0.012800
0.412000 0.444000 0.011200
0.435200 0.444000 0.013600
0.345600 0.444800 0.005600
0.545600 0.444800 0.015200
0.315200 0.445600 0.012800
0.333600 0.445600 0.009600
0.268800 0.446400 0.013600
0.292800 0.446400 0.015200
